55.001861930 126.0
55.006785777 122.0
55.011709624 114.0
55.016633471 142.0
55.021557318 123.0
55.026481165 112.0
55.031405012 113.0
55.036328859 122.0
55.041252706 128.0
55.046176553 117.0
55.051100400 122.0
55.056024247 127.0
55.060948095 126.0
55.065871942 127.0
55.070795789 110.0
55.075719636 109.0
55.080643483 131.0
55.085567330 116.0
55.090491177 111.0
55.095415024 113.0
55.100338871 125.0
55.105262718 115.0
55.110186565 135.0
55.115110412 121.0
55.120034259 132.0
55.124958106 128.0
55.129881953 111.0
55.134805800 91.0
55.139729647 114.0
55.144653494 118.0
55.149577341 125.0
55.154501188 128.0
55.159425035 110.0
55.164348882 106.0
55.169272729 140.0
55.174196576 126.0
55.179120424 130.0
55.184044271 116.0
55.188968118 158.0
55.193891965 118.0
55.198815812 111.0
55.203739659 112.0
55.208663506 117.0
55.213587353 124.0
55.218511200 130.0
55.223435047 102.0
55.228358894 115.0
55.233282741 119.0
55.238206588 124.0
55.243130435 128.0
55.248054282 118.0
55.252978129 117.0
55.257901976 122.0
55.262825823 118.0
55.267749670 119.0
55.272673517 118.0
55.277597364 115.0
55.282521211 120.0
55.287445058 127.0
55.292368906 106.0
55.297292753 132.0
55.302216600 118.0
55.307140447 149.0
55.312064294 135.0
55.316988141 110.0
55.321911988 147.0
55.326835835 114.0
55.331759682 147.0
55.336683529 106.0
55.341607376 136.0
55.346531223 115.0
55.351455070 117.0
55.356378917 117.0
55.361302764 121.0
55.366226611 133.0
55.371150458 136.0
55.376074305 139.0
55.380998152 140.0
55.385921999 130.0
55.390845846 112.0
55.395769693 106.0
55.400693540 109.0
55.405617387 98.0
55.410541235 114.0
55.415465082 125.0
55.420388929 136.0
55.425312776 135.0
55.430236623 117.0
55.435160470 118.0
55.440084317 121.0
55.445008164 114.0
55.449932011 135.0
55.454855858 142.0
55.459779705 141.0
55.464703552 126.0
55.469627399 117.0
55.474551246 130.0
55.479475093 133.0
55.484398940 130.0
55.489322787 134.0
55.494246634 125.0
55.499170481 135.0
55.504094328 115.0
55.509018175 115.0
55.513942022 121.0
55.518865869 139.0
55.523789717 106.0
55.528713564 131.0
55.533637411 119.0
55.538561258 132.0
55.543485105 124.0
55.548408952 142.0
55.553332799 143.0
55.558256646 108.0
55.563180493 142.0
55.568104340 123.0
55.573028187 116.0
55.577952034 119.0
55.582875881 127.0
55.587799728 118.0
55.592723575 123.0
55.597647422 140.0
55.602571269 120.0
55.607495116 128.0
55.612418963 138.0
55.617342810 124.0
55.622266657 111.0
55.627190504 139.0
55.632114351 116.0
55.637038198 127.0
55.641962046 123.0
55.646885893 142.0
55.651809740 120.0
55.656733587 109.0
55.661657434 132.0
55.666581281 120.0
55.671505128 122.0
55.676428975 134.0
55.681352822 118.0
55.686276669 130.0
55.691200516 117.0
55.696124363 102.0
55.701048210 126.0
55.705972057 144.0
55.710895904 109.0
55.715819751 121.0
55.720743598 110.0
55.725667445 127.0
55.730591292 128.0
55.735515139 107.0
55.740438986 145.0
55.745362833 122.0
55.750286680 112.0
55.755210528 127.0
55.760134375 137.0
55.765058222 118.0
55.769982069 136.0
55.774905916 121.0
55.779829763 109.0
55.784753610 112.0
55.789677457 109.0
55.794601304 117.0
55.799525151 107.0
55.804448998 121.0
55.809372845 95.0
55.814296692 125.0
55.819220539 113.0
55.824144386 134.0
55.829068233 116.0
55.833992080 121.0
55.838915927 110.0
55.843839774 105.0
55.848763621 115.0
55.853687468 123.0
55.858611315 129.0
55.863535162 132.0
55.868459009 130.0
55.873382857 125.0
55.878306704 134.0
55.883230551 112.0
55.888154398 131.0
55.893078245 113.0
55.898002092 112.0
55.902925939 104.0
55.907849786 131.0
55.912773633 123.0
55.917697480 128.0
55.922621327 128.0
55.927545174 112.0
55.932469021 135.0
55.937392868 139.0
55.942316715 111.0
55.947240562 131.0
55.952164409 124.0
55.957088256 122.0
55.962012103 122.0
55.966935950 132.0
55.971859797 132.0
55.976783644 118.0
55.981707491 133.0
55.986631339 116.0
55.991555186 110.0
55.996479033 132.0
56.001402880 108.0
56.006326727 137.0
56.011250574 113.0
56.016174421 106.0
56.021098268 120.0
56.026022115 145.0
56.030945962 136.0
56.035869809 110.0
56.040793656 129.0
56.045717503 99.0
56.050641350 131.0
56.055565197 124.0
56.060489044 111.0
56.065412891 146.0
56.070336738 133.0
56.075260585 134.0
56.080184432 122.0
56.085108279 97.0
56.090032126 109.0
56.094955973 123.0
56.099879820 128.0
56.104803668 130.0
56.109727515 120.0
56.114651362 135.0
56.119575209 135.0
56.124499056 131.0
56.129422903 120.0
56.134346750 118.0
56.139270597 99.0
56.144194444 111.0
56.149118291 139.0
56.154042138 120.0
56.158965985 127.0
56.163889832 127.0
56.168813679 118.0
56.173737526 117.0
56.178661373 119.0
56.183585220 126.0
56.188509067 125.0
56.193432914 118.0
56.198356761 135.0
56.203280608 130.0
56.208204455 122.0
56.213128302 151.0
56.218052150 134.0
56.222975997 126.0
56.227899844 113.0
56.232823691 119.0
56.237747538 106.0
56.242671385 128.0
56.247595232 130.0
56.252519079 127.0
56.257442926 120.0
56.262366773 132.0
56.267290620 140.0
56.272214467 140.0
56.277138314 145.0
56.282062161 139.0
56.286986008 98.0
56.291909855 134.0
56.296833702 124.0
56.301757549 128.0
56.306681396 123.0
56.311605243 129.0
56.316529090 129.0
56.321452937 117.0
56.326376784 143.0
56.331300632 115.0
56.336224479 127.0
56.341148326 138.0
56.346072173 110.0
56.350996020 125.0
56.355919867 111.0
56.360843714 117.0
56.365767561 116.0
56.370691408 116.0
56.375615255 111.0
56.380539102 135.0
56.385462949 105.0
56.390386796 127.0
56.395310643 111.0
56.400234490 127.0
56.405158337 123.0
56.410082184 115.0
56.415006031 121.0
56.419929878 117.0
56.424853725 127.0
56.429777572 99.0
56.434701419 103.0
56.439625266 120.0
56.444549113 131.0
56.449472961 135.0
56.454396808 97.0
56.459320655 136.0
56.464244502 106.0
56.469168349 143.0
56.474092196 111.0
56.479016043 103.0
56.483939890 129.0
56.488863737 116.0
56.493787584 106.0
56.498711431 125.0
56.503635278 108.0
56.508559125 124.0
56.513482972 135.0
56.518406819 119.0
56.523330666 140.0
56.528254513 104.0
56.533178360 107.0
56.538102207 125.0
56.543026054 109.0
56.547949901 142.0
56.552873748 106.0
56.557797595 123.0
56.562721443 137.0
56.567645290 121.0
56.572569137 124.0
56.577492984 120.0
56.582416831 128.0
56.587340678 110.0
56.592264525 114.0
56.597188372 142.0
56.602112219 100.0
56.607036066 112.0
56.611959913 123.0
56.616883760 130.0
56.621807607 125.0
56.626731454 123.0
56.631655301 130.0
56.636579148 143.0
56.641502995 123.0
56.646426842 118.0
56.651350689 109.0
56.656274536 124.0
56.661198383 142.0
56.666122230 136.0
56.671046077 110.0
56.675969924 115.0
56.680893772 140.0
56.685817619 139.0
56.690741466 104.0
56.695665313 130.0
56.700589160 125.0
56.705513007 149.0
56.710436854 114.0
56.715360701 127.0
56.720284548 125.0
56.725208395 125.0
56.730132242 119.0
56.735056089 127.0
56.739979936 129.0
56.744903783 143.0
56.749827630 110.0
56.754751477 140.0
56.759675324 134.0
56.764599171 146.0
56.769523018 130.0
56.774446865 130.0
56.779370712 128.0
56.784294559 130.0
56.789218406 126.0
56.794142254 110.0
56.799066101 127.0
56.803989948 114.0
56.808913795 107.0
56.813837642 112.0
56.818761489 126.0
56.823685336 112.0
56.828609183 127.0
56.833533030 119.0
56.838456877 118.0
56.843380724 124.0
56.848304571 125.0
56.853228418 130.0
56.858152265 137.0
56.863076112 145.0
56.867999959 121.0
56.872923806 146.0
56.877847653 140.0
56.882771500 127.0
56.887695347 139.0
56.892619194 119.0
56.897543041 131.0
56.902466888 129.0
56.907390735 123.0
56.912314583 116.0
56.917238430 140.0
56.922162277 124.0
56.927086124 135.0
56.932009971 120.0
56.936933818 126.0
56.941857665 125.0
56.946781512 126.0
56.951705359 131.0
56.956629206 130.0
56.961553053 134.0
56.966476900 128.0
56.971400747 122.0
56.976324594 110.0
56.981248441 136.0
56.986172288 118.0
56.991096135 144.0
56.996019982 132.0
57.000943829 122.0
57.005867676 138.0
57.010791523 116.0
57.015715370 121.0
57.020639217 111.0
57.025563065 111.0
57.030486912 127.0
57.035410759 131.0
57.040334606 119.0
57.045258453 122.0
57.050182300 120.0
57.055106147 120.0
57.060029994 101.0
57.064953841 128.0
57.069877688 121.0
57.074801535 119.0
57.079725382 112.0
57.084649229 118.0
57.089573076 122.0
57.094496923 152.0
57.099420770 109.0
57.104344617 122.0
57.109268464 103.0
57.114192311 134.0
57.119116158 135.0
57.124040005 130.0
57.128963852 132.0
57.133887699 123.0
57.138811546 110.0
57.143735394 137.0
57.148659241 132.0
57.153583088 126.0
57.158506935 135.0
57.163430782 125.0
57.168354629 131.0
57.173278476 121.0
57.178202323 125.0
57.183126170 126.0
57.188050017 121.0
57.192973864 120.0
57.197897711 122.0
57.202821558 125.0
57.207745405 121.0
57.212669252 127.0
57.217593099 108.0
57.222516946 124.0
57.227440793 137.0
57.232364640 126.0
57.237288487 109.0
57.242212334 124.0
57.247136181 147.0
57.252060028 118.0
57.256983876 113.0
57.261907723 98.0
57.266831570 128.0
57.271755417 130.0
57.276679264 123.0
57.281603111 135.0
57.286526958 126.0
57.291450805 118.0
57.296374652 135.0
57.301298499 126.0
57.306222346 125.0
57.311146193 124.0
57.316070040 142.0
57.320993887 128.0
57.325917734 96.0
57.330841581 129.0
57.335765428 124.0
57.340689275 112.0
57.345613122 124.0
57.350536969 120.0
57.355460816 130.0
57.360384663 123.0
57.365308510 134.0
57.370232357 118.0
57.375156205 124.0
57.380080052 125.0
57.385003899 129.0
57.389927746 132.0
57.394851593 124.0
57.399775440 123.0
57.404699287 109.0
57.409623134 115.0
57.414546981 133.0
57.419470828 137.0
57.424394675 129.0
57.429318522 134.0
57.434242369 127.0
57.439166216 122.0
57.444090063 110.0
57.449013910 128.0
57.453937757 136.0
57.458861604 129.0
57.463785451 119.0
57.468709298 107.0
57.473633145 100.0
57.478556992 106.0
57.483480839 123.0
57.488404687 119.0
57.493328534 139.0
57.498252381 113.0
57.503176228 118.0
57.508100075 147.0
57.513023922 124.0
57.517947769 119.0
57.522871616 140.0
57.527795463 116.0
57.532719310 131.0
57.537643157 119.0
57.542567004 128.0
57.547490851 136.0
57.552414698 138.0
57.557338545 137.0
57.562262392 137.0
57.567186239 108.0
57.572110086 117.0
57.577033933 124.0
57.581957780 129.0
57.586881627 139.0
57.591805474 121.0
57.596729321 112.0
57.601653168 114.0
57.606577016 125.0
57.611500863 110.0
57.616424710 108.0
57.621348557 135.0
57.626272404 120.0
57.631196251 130.0
57.636120098 108.0
57.641043945 126.0
57.645967792 120.0
57.650891639 119.0
57.655815486 129.0
57.660739333 122.0
57.665663180 141.0
57.670587027 125.0
57.675510874 136.0
57.680434721 129.0
57.685358568 121.0
57.690282415 127.0
57.695206262 130.0
57.700130109 127.0
57.705053956 115.0
57.709977803 108.0
57.714901650 127.0
57.719825498 111.0
57.724749345 138.0
57.729673192 145.0
57.734597039 117.0
57.739520886 121.0
57.744444733 128.0
57.749368580 123.0
57.754292427 122.0
57.759216274 143.0
57.764140121 155.0
57.769063968 124.0
57.773987815 126.0
57.778911662 138.0
57.783835509 124.0
57.788759356 130.0
57.793683203 132.0
57.798607050 112.0
57.803530897 144.0
57.808454744 123.0
57.813378591 136.0
57.818302438 133.0
57.823226285 133.0
57.828150132 129.0
57.833073979 122.0
57.837997827 141.0
57.842921674 122.0
57.847845521 135.0
57.852769368 128.0
57.857693215 118.0
57.862617062 122.0
57.867540909 118.0
57.872464756 133.0
57.877388603 138.0
57.882312450 139.0
57.887236297 119.0
57.892160144 130.0
57.897083991 141.0
57.902007838 124.0
57.906931685 139.0
57.911855532 118.0
57.916779379 117.0
57.921703226 107.0
57.926627073 138.0
57.931550920 124.0
57.936474767 132.0
57.941398614 122.0
57.946322461 156.0
57.951246309 136.0
57.956170156 127.0
57.961094003 153.0
57.966017850 144.0
57.970941697 149.0
57.975865544 127.0
57.980789391 128.0
57.985713238 140.0
57.990637085 153.0
57.995560932 126.0
58.000484779 150.0
58.005408626 130.0
58.010332473 145.0
58.015256320 138.0
58.020180167 154.0
58.025104014 123.0
58.030027861 174.0
58.034951708 137.0
58.039875555 136.0
58.044799402 136.0
58.049723249 151.0
58.054647096 126.0
58.059570943 142.0
58.064494790 135.0
58.069418638 125.0
58.074342485 150.0
58.079266332 131.0
58.084190179 139.0
58.089114026 140.0
58.094037873 144.0
58.098961720 126.0
58.103885567 148.0
58.108809414 118.0
58.113733261 138.0
58.118657108 140.0
58.123580955 139.0
58.128504802 137.0
58.133428649 129.0
58.138352496 151.0
58.143276343 136.0
58.148200190 126.0
58.153124037 136.0
58.158047884 107.0
58.162971731 139.0
58.167895578 114.0
58.172819425 137.0
58.177743272 121.0
58.182667120 126.0
58.187590967 119.0
58.192514814 138.0
58.197438661 134.0
58.202362508 127.0
58.207286355 132.0
58.212210202 122.0
58.217134049 116.0
58.222057896 125.0
58.226981743 137.0
58.231905590 137.0
58.236829437 120.0
58.241753284 148.0
58.246677131 123.0
58.251600978 134.0
58.256524825 117.0
58.261448672 125.0
58.266372519 131.0
58.271296366 114.0
58.276220213 131.0
58.281144060 123.0
58.286067907 124.0
58.290991754 154.0
58.295915601 136.0
58.300839449 149.0
58.305763296 128.0
58.310687143 117.0
58.315610990 127.0
58.320534837 142.0
58.325458684 144.0
58.330382531 130.0
58.335306378 138.0
58.340230225 138.0
58.345154072 152.0
58.350077919 129.0
58.355001766 148.0
58.359925613 141.0
58.364849460 119.0
58.369773307 114.0
58.374697154 115.0
58.379621001 108.0
58.384544848 110.0
58.389468695 128.0
58.394392542 136.0
58.399316389 117.0
58.404240236 135.0
58.409164083 119.0
58.414087931 125.0
58.419011778 134.0
58.423935625 167.0
58.428859472 126.0
58.433783319 128.0
58.438707166 106.0
58.443631013 143.0
58.448554860 135.0
58.453478707 119.0
58.458402554 133.0
58.463326401 119.0
58.468250248 132.0
58.473174095 128.0
58.478097942 118.0
58.483021789 118.0
58.487945636 140.0
58.492869483 143.0
58.497793330 124.0
58.502717177 110.0
58.507641024 129.0
58.512564871 116.0
58.517488718 128.0
58.522412565 128.0
58.527336413 102.0
58.532260260 108.0
58.537184107 121.0
58.542107954 125.0
58.547031801 139.0
58.551955648 127.0
58.556879495 133.0
58.561803342 125.0
58.566727189 130.0
58.571651036 129.0
58.576574883 130.0
58.581498730 139.0
58.586422577 142.0
58.591346424 107.0
58.596270271 128.0
58.601194118 136.0
58.606117965 113.0
58.611041812 112.0
58.615965659 128.0
58.620889506 111.0
58.625813353 122.0
58.630737200 120.0
58.635661047 104.0
58.640584894 136.0
58.645508742 112.0
58.650432589 138.0
58.655356436 122.0
58.660280283 120.0
58.665204130 120.0
58.670127977 110.0
58.675051824 116.0
58.679975671 122.0
58.684899518 135.0
58.689823365 141.0
58.694747212 130.0
58.699671059 122.0
58.704594906 133.0
58.709518753 130.0
58.714442600 120.0
58.719366447 101.0
58.724290294 116.0
58.729214141 122.0
58.734137988 126.0
58.739061835 131.0
58.743985682 117.0
58.748909529 139.0
58.753833376 131.0
58.758757224 124.0
58.763681071 131.0
58.768604918 135.0
58.773528765 123.0
58.778452612 119.0
58.783376459 107.0
58.788300306 125.0
58.793224153 135.0
58.798148000 132.0
58.803071847 135.0
58.807995694 147.0
58.812919541 107.0
58.817843388 121.0
58.822767235 124.0
58.827691082 127.0
58.832614929 118.0
58.837538776 124.0
58.842462623 120.0
58.847386470 132.0
58.852310317 110.0
58.857234164 140.0
58.862158011 117.0
58.867081858 140.0
58.872005705 120.0
58.876929553 107.0
58.881853400 124.0
58.886777247 127.0
58.891701094 131.0
58.896624941 121.0
58.901548788 118.0
58.906472635 138.0
58.911396482 130.0
58.916320329 122.0
58.921244176 124.0
58.926168023 134.0
58.931091870 125.0
58.936015717 121.0
58.940939564 120.0
58.945863411 133.0
58.950787258 134.0
58.955711105 123.0
58.960634952 120.0
58.965558799 140.0
58.970482646 113.0
58.975406493 135.0
58.980330340 135.0
58.985254187 128.0
58.990178035 117.0
58.995101882 118.0
59.000025729 126.0
59.004949576 124.0
59.009873423 146.0
59.014797270 126.0
59.019721117 116.0
59.024644964 118.0
59.029568811 118.0
59.034492658 125.0
59.039416505 119.0
59.044340352 120.0
59.049264199 148.0
59.054188046 138.0
59.059111893 132.0
59.064035740 129.0
59.068959587 116.0
59.073883434 149.0
59.078807281 135.0
59.083731128 142.0
59.088654975 117.0
59.093578822 134.0
59.098502669 139.0
59.103426516 129.0
59.108350364 105.0
59.113274211 112.0
59.118198058 143.0
59.123121905 138.0
59.128045752 119.0
59.132969599 122.0
59.137893446 126.0
59.142817293 132.0
59.147741140 105.0
59.152664987 115.0
59.157588834 110.0
59.162512681 113.0
59.167436528 126.0
59.172360375 110.0
59.177284222 130.0
59.182208069 130.0
59.187131916 107.0
59.192055763 118.0
59.196979610 124.0
59.201903457 105.0
59.206827304 133.0
59.211751151 145.0
59.216674998 126.0
59.221598846 119.0
59.226522693 131.0
59.231446540 130.0
59.236370387 146.0
59.241294234 134.0
59.246218081 136.0
59.251141928 119.0
59.256065775 131.0
59.260989622 120.0
59.265913469 131.0
59.270837316 124.0
59.275761163 121.0
59.280685010 127.0
59.285608857 116.0
59.290532704 145.0
59.295456551 124.0
59.300380398 125.0
59.305304245 136.0
59.310228092 155.0
59.315151939 110.0
59.320075786 140.0
59.324999633 135.0
59.329923480 125.0
59.334847327 123.0
59.339771175 110.0
59.344695022 137.0
59.349618869 140.0
59.354542716 140.0
59.359466563 126.0
59.364390410 154.0
59.369314257 120.0
59.374238104 133.0
59.379161951 109.0
59.384085798 134.0
59.389009645 139.0
59.393933492 138.0
59.398857339 129.0
59.403781186 121.0
59.408705033 131.0
59.413628880 137.0
59.418552727 131.0
59.423476574 124.0
59.428400421 135.0
59.433324268 123.0
59.438248115 146.0
59.443171962 115.0
59.448095809 127.0
59.453019657 128.0
59.457943504 143.0
59.462867351 132.0
59.467791198 110.0
59.472715045 123.0
59.477638892 133.0
59.482562739 157.0
59.487486586 144.0
59.492410433 135.0
59.497334280 118.0
59.502258127 153.0
59.507181974 124.0
59.512105821 104.0
59.517029668 117.0
59.521953515 130.0
59.526877362 112.0
59.531801209 114.0
59.536725056 115.0
59.541648903 134.0
59.546572750 117.0
59.551496597 123.0
59.556420444 139.0
59.561344291 141.0
59.566268138 138.0
59.571191986 138.0
59.576115833 121.0
59.581039680 132.0
59.585963527 116.0
59.590887374 120.0
59.595811221 127.0
59.600735068 129.0
59.605658915 150.0
59.610582762 140.0
59.615506609 115.0
59.620430456 118.0
59.625354303 117.0
59.630278150 135.0
59.635201997 138.0
59.640125844 144.0
59.645049691 128.0
59.649973538 137.0
59.654897385 117.0
59.659821232 120.0
59.664745079 120.0
59.669668926 121.0
59.674592773 118.0
59.679516620 151.0
59.684440468 125.0
59.689364315 134.0
59.694288162 116.0
59.699212009 101.0
59.704135856 131.0
59.709059703 135.0
59.713983550 131.0
59.718907397 155.0
59.723831244 131.0
59.728755091 122.0
59.733678938 128.0
59.738602785 118.0
59.743526632 134.0
59.748450479 113.0
59.753374326 124.0
59.758298173 125.0
59.763222020 99.0
59.768145867 108.0
59.773069714 115.0
59.777993561 116.0
59.782917408 100.0
59.787841255 142.0
59.792765102 125.0
59.797688949 127.0
59.802612797 121.0
59.807536644 130.0
59.812460491 136.0
59.817384338 118.0
59.822308185 154.0
59.827232032 119.0
59.832155879 122.0
59.837079726 121.0
59.842003573 112.0
59.846927420 115.0
59.851851267 123.0
59.856775114 130.0
59.861698961 116.0
59.866622808 126.0
59.871546655 143.0
59.876470502 118.0
59.881394349 141.0
59.886318196 146.0
59.891242043 124.0
59.896165890 116.0
59.901089737 151.0
59.906013584 118.0
59.910937431 121.0
59.915861279 124.0
59.920785126 120.0
59.925708973 123.0
59.930632820 113.0
59.935556667 126.0
59.940480514 109.0
59.945404361 128.0
59.950328208 124.0
59.955252055 128.0
59.960175902 115.0
59.965099749 140.0
59.970023596 121.0
59.974947443 111.0
59.979871290 105.0
59.984795137 127.0
59.989718984 119.0
59.994642831 144.0
59.999566678 118.0
60.004490525 131.0
60.009414372 121.0
60.014338219 144.0
60.019262066 135.0
60.024185913 126.0
60.029109760 134.0
60.034033608 140.0
60.038957455 127.0
60.043881302 126.0
60.048805149 128.0
60.053728996 130.0
60.058652843 110.0
60.063576690 123.0
60.068500537 122.0
60.073424384 136.0
60.078348231 127.0
60.083272078 137.0
60.088195925 127.0
60.093119772 115.0
60.098043619 123.0
60.102967466 128.0
60.107891313 128.0
60.112815160 133.0
60.117739007 118.0
60.122662854 116.0
60.127586701 125.0
60.132510548 130.0
60.137434395 135.0
60.142358242 132.0
60.147282090 138.0
60.152205937 138.0
60.157129784 122.0
60.162053631 122.0
60.166977478 115.0
60.171901325 124.0
60.176825172 144.0
60.181749019 126.0
60.186672866 127.0
60.191596713 135.0
60.196520560 135.0
60.201444407 168.0
60.206368254 137.0
60.211292101 131.0
60.216215948 151.0
60.221139795 138.0
60.226063642 138.0
60.230987489 119.0
60.235911336 124.0
60.240835183 129.0
60.245759030 152.0
60.250682877 132.0
60.255606724 144.0
60.260530571 156.0
60.265454419 136.0
60.270378266 126.0
60.275302113 150.0
60.280225960 134.0
60.285149807 151.0
60.290073654 149.0
60.294997501 167.0
60.299921348 163.0
60.304845195 154.0
60.309769042 140.0
60.314692889 146.0
60.319616736 148.0
60.324540583 126.0
60.329464430 131.0
60.334388277 169.0
60.339312124 153.0
60.344235971 133.0
60.349159818 156.0
60.354083665 128.0
60.359007512 132.0
60.363931359 138.0
60.368855206 148.0
60.373779053 129.0
60.378702901 131.0
60.383626748 148.0
60.388550595 145.0
60.393474442 135.0
60.398398289 122.0
60.403322136 124.0
60.408245983 139.0
60.413169830 136.0
60.418093677 120.0
60.423017524 121.0
60.427941371 141.0
60.432865218 126.0
60.437789065 155.0
60.442712912 142.0
60.447636759 143.0
60.452560606 157.0
60.457484453 141.0
60.462408300 137.0
60.467332147 120.0
60.472255994 147.0
60.477179841 144.0
60.482103688 118.0
60.487027535 129.0
60.491951382 155.0
60.496875230 133.0
60.501799077 135.0
60.506722924 136.0
60.511646771 148.0
60.516570618 159.0
60.521494465 133.0
60.526418312 126.0
60.531342159 125.0
60.536266006 156.0
60.541189853 154.0
60.546113700 154.0
60.551037547 156.0
60.555961394 132.0
60.560885241 143.0
60.565809088 141.0
60.570732935 131.0
60.575656782 137.0
60.580580629 135.0
60.585504476 142.0
60.590428323 143.0
60.595352170 142.0
60.600276017 136.0
60.605199864 151.0
60.610123712 131.0
60.615047559 138.0
60.619971406 144.0
60.624895253 142.0
60.629819100 148.0
60.634742947 146.0
60.639666794 146.0
60.644590641 132.0
60.649514488 155.0
60.654438335 148.0
60.659362182 162.0
60.664286029 149.0
60.669209876 134.0
60.674133723 152.0
60.679057570 154.0
60.683981417 183.0
60.688905264 159.0
60.693829111 170.0
60.698752958 182.0
60.703676805 165.0
60.708600652 169.0
60.713524499 185.0
60.718448346 175.0
60.723372194 201.0
60.728296041 223.0
60.733219888 208.0
60.738143735 220.0
60.743067582 228.0
60.747991429 309.0
60.752915276 342.0
60.757839123 341.0
60.762762970 363.0
60.767686817 433.0
60.772610664 472.0
60.777534511 507.0
60.782458358 612.0
60.787382205 714.0
60.792306052 804.0
60.797229899 903.0
60.802153746 1024.0
60.807077593 1118.0
60.812001440 1197.0
60.816925287 1270.0
60.821849134 1338.0
60.826772981 1389.0
60.831696828 1407.0
60.836620675 1377.0
60.841544523 1309.0
60.846468370 1305.0
60.851392217 1195.0
60.856316064 1144.0
60.861239911 1101.0
60.866163758 1002.0
60.871087605 877.0
60.876011452 832.0
60.880935299 738.0
60.885859146 726.0
60.890782993 676.0
60.895706840 638.0
60.900630687 631.0
60.905554534 606.0
60.910478381 590.0
60.915402228 613.0
60.920326075 558.0
60.925249922 574.0
60.930173769 522.0
60.935097616 433.0
60.940021463 434.0
60.944945310 395.0
60.949869157 334.0
60.954793005 323.0
60.959716852 272.0
60.964640699 290.0
60.969564546 263.0
60.974488393 216.0
60.979412240 284.0
60.984336087 221.0
60.989259934 242.0
60.994183781 218.0
60.999107628 210.0
61.004031475 198.0
61.008955322 190.0
61.013879169 205.0
61.018803016 173.0
61.023726863 171.0
61.028650710 166.0
61.033574557 164.0
61.038498404 186.0
61.043422251 203.0
61.048346098 160.0
61.053269945 190.0
61.058193792 172.0
61.063117639 158.0
61.068041486 173.0
61.072965334 189.0
61.077889181 145.0
61.082813028 165.0
61.087736875 167.0
61.092660722 156.0
61.097584569 162.0
61.102508416 166.0
61.107432263 148.0
61.112356110 159.0
61.117279957 168.0
61.122203804 171.0
61.127127651 158.0
61.132051498 166.0
61.136975345 158.0
61.141899192 165.0
61.146823039 167.0
61.151746886 174.0
61.156670733 155.0
61.161594580 146.0
61.166518427 198.0
61.171442274 156.0
61.176366121 158.0
61.181289968 152.0
61.186213816 138.0
61.191137663 174.0
61.196061510 150.0
61.200985357 162.0
61.205909204 167.0
61.210833051 153.0
61.215756898 148.0
61.220680745 152.0
61.225604592 140.0
61.230528439 159.0
61.235452286 145.0
61.240376133 150.0
61.245299980 166.0
61.250223827 156.0
61.255147674 151.0
61.260071521 161.0
61.264995368 155.0
61.269919215 158.0
61.274843062 138.0
61.279766909 133.0
61.284690756 160.0
61.289614603 153.0
61.294538450 144.0
61.299462297 136.0
61.304386145 146.0
61.309309992 121.0
61.314233839 146.0
61.319157686 144.0
61.324081533 147.0
61.329005380 152.0
61.333929227 139.0
61.338853074 146.0
61.343776921 135.0
61.348700768 138.0
61.353624615 127.0
61.358548462 164.0
61.363472309 154.0
61.368396156 130.0
61.373320003 140.0
61.378243850 159.0
61.383167697 141.0
61.388091544 130.0
61.393015391 119.0
61.397939238 143.0
61.402863085 178.0
61.407786932 113.0
61.412710779 131.0
61.417634627 155.0
61.422558474 140.0
61.427482321 136.0
61.432406168 155.0
61.437330015 149.0
61.442253862 157.0
61.447177709 140.0
61.452101556 152.0
61.457025403 160.0
61.461949250 140.0
61.466873097 117.0
61.471796944 152.0
61.476720791 140.0
61.481644638 123.0
61.486568485 153.0
61.491492332 138.0
61.496416179 154.0
61.501340026 139.0
61.506263873 162.0
61.511187720 130.0
61.516111567 119.0
61.521035414 150.0
61.525959261 158.0
61.530883108 160.0
61.535806956 146.0
61.540730803 143.0
61.545654650 106.0
61.550578497 147.0
61.555502344 161.0
61.560426191 141.0
61.565350038 144.0
61.570273885 128.0
61.575197732 130.0
61.580121579 146.0
61.585045426 154.0
61.589969273 151.0
61.594893120 148.0
61.599816967 138.0
61.604740814 148.0
61.609664661 141.0
61.614588508 130.0
61.619512355 136.0
61.624436202 136.0
61.629360049 126.0
61.634283896 144.0
61.639207743 143.0
61.644131590 167.0
61.649055438 154.0
61.653979285 156.0
61.658903132 142.0
61.663826979 134.0
61.668750826 125.0
61.673674673 135.0
61.678598520 146.0
61.683522367 167.0
61.688446214 142.0
61.693370061 181.0
61.698293908 152.0
61.703217755 120.0
61.708141602 133.0
61.713065449 131.0
61.717989296 140.0
61.722913143 145.0
61.727836990 143.0
61.732760837 157.0
61.737684684 102.0
61.742608531 139.0
61.747532378 151.0
61.752456225 126.0
61.757380072 144.0
61.762303919 137.0
61.767227767 139.0
61.772151614 142.0
61.777075461 137.0
61.781999308 138.0
61.786923155 138.0
61.791847002 132.0
61.796770849 148.0
61.801694696 130.0
61.806618543 156.0
61.811542390 136.0
61.816466237 129.0
61.821390084 156.0
61.826313931 154.0
61.831237778 177.0
61.836161625 146.0
61.841085472 151.0
61.846009319 145.0
61.850933166 146.0
61.855857013 140.0
61.860780860 121.0
61.865704707 144.0
61.870628554 133.0
61.875552401 136.0
61.880476249 150.0
61.885400096 143.0
61.890323943 155.0
61.895247790 154.0
61.900171637 129.0
61.905095484 140.0
61.910019331 151.0
61.914943178 132.0
61.919867025 147.0
61.924790872 124.0
61.929714719 154.0
61.934638566 116.0
61.939562413 140.0
61.944486260 140.0
61.949410107 154.0
61.954333954 140.0
61.959257801 139.0
61.964181648 117.0
61.969105495 142.0
61.974029342 144.0
61.978953189 164.0
61.983877036 140.0
61.988800883 120.0
61.993724730 148.0
61.998648578 157.0
62.003572425 145.0
62.008496272 128.0
62.013420119 131.0
62.018343966 148.0
62.023267813 153.0
62.028191660 138.0
62.033115507 134.0
62.038039354 119.0
62.042963201 153.0
62.047887048 141.0
62.052810895 148.0
62.057734742 133.0
62.062658589 150.0
62.067582436 135.0
62.072506283 143.0
62.077430130 130.0
62.082353977 140.0
62.087277824 143.0
62.092201671 135.0
62.097125518 150.0
62.102049365 135.0
62.106973212 141.0
62.111897060 152.0
62.116820907 140.0
62.121744754 135.0
62.126668601 139.0
62.131592448 142.0
62.136516295 135.0
62.141440142 140.0
62.146363989 144.0
62.151287836 156.0
62.156211683 118.0
62.161135530 144.0
62.166059377 121.0
62.170983224 143.0
62.175907071 137.0
62.180830918 147.0
62.185754765 145.0
62.190678612 127.0
62.195602459 150.0
62.200526306 116.0
62.205450153 138.0
62.210374000 132.0
62.215297847 153.0
62.220221694 127.0
62.225145541 142.0
62.230069389 132.0
62.234993236 133.0
62.239917083 137.0
62.244840930 130.0
62.249764777 138.0
62.254688624 147.0
62.259612471 134.0
62.264536318 151.0
62.269460165 148.0
62.274384012 139.0
62.279307859 118.0
62.284231706 127.0
62.289155553 142.0
62.294079400 153.0
62.299003247 145.0
62.303927094 146.0
62.308850941 130.0
62.313774788 127.0
62.318698635 126.0
62.323622482 131.0
62.328546329 154.0
62.333470176 131.0
62.338394023 146.0
62.343317871 132.0
62.348241718 132.0
62.353165565 151.0
62.358089412 153.0
62.363013259 137.0
62.367937106 147.0
62.372860953 142.0
62.377784800 136.0
62.382708647 138.0
62.387632494 173.0
62.392556341 130.0
62.397480188 140.0
62.402404035 153.0
62.407327882 137.0
62.412251729 143.0
62.417175576 129.0
62.422099423 113.0
62.427023270 145.0
62.431947117 132.0
62.436870964 147.0
62.441794811 129.0
62.446718658 146.0
62.451642505 140.0
62.456566352 132.0
62.461490200 131.0
62.466414047 133.0
62.471337894 152.0
62.476261741 161.0
62.481185588 134.0
62.486109435 155.0
62.491033282 153.0
62.495957129 143.0
62.500880976 152.0
62.505804823 129.0
62.510728670 118.0
62.515652517 150.0
62.520576364 144.0
62.525500211 152.0
62.530424058 114.0
62.535347905 155.0
62.540271752 133.0
62.545195599 136.0
62.550119446 151.0
62.555043293 115.0
62.559967140 124.0
62.564890987 136.0
62.569814834 146.0
62.574738682 140.0
62.579662529 114.0
62.584586376 140.0
62.589510223 131.0
62.594434070 144.0
62.599357917 146.0
62.604281764 155.0
62.609205611 130.0
62.614129458 128.0
62.619053305 135.0
62.623977152 132.0
62.628900999 152.0
62.633824846 139.0
62.638748693 143.0
62.643672540 149.0
62.648596387 166.0
62.653520234 131.0
62.658444081 133.0
62.663367928 157.0
62.668291775 134.0
62.673215622 139.0
62.678139469 166.0
62.683063316 146.0
62.687987163 133.0
62.692911011 130.0
62.697834858 156.0
62.702758705 144.0
62.707682552 101.0
62.712606399 113.0
62.717530246 141.0
62.722454093 139.0
62.727377940 143.0
62.732301787 131.0
62.737225634 133.0
62.742149481 121.0
62.747073328 123.0
62.751997175 140.0
62.756921022 157.0
62.761844869 141.0
62.766768716 141.0
62.771692563 135.0
62.776616410 156.0
62.781540257 152.0
62.786464104 113.0
62.791387951 131.0
62.796311798 146.0
62.801235645 164.0
62.806159493 128.0
62.811083340 149.0
62.816007187 154.0
62.820931034 146.0
62.825854881 127.0
62.830778728 136.0
62.835702575 127.0
62.840626422 134.0
62.845550269 129.0
62.850474116 138.0
62.855397963 182.0
62.860321810 147.0
62.865245657 132.0
62.870169504 136.0
62.875093351 150.0
62.880017198 136.0
62.884941045 154.0
62.889864892 142.0
62.894788739 147.0
62.899712586 145.0
62.904636433 143.0
62.909560280 153.0
62.914484127 120.0
62.919407975 134.0
62.924331822 144.0
62.929255669 152.0
62.934179516 146.0
62.939103363 130.0
62.944027210 153.0
62.948951057 142.0
62.953874904 143.0
62.958798751 142.0
62.963722598 145.0
62.968646445 146.0
62.973570292 146.0
62.978494139 143.0
62.983417986 137.0
62.988341833 137.0
62.993265680 157.0
62.998189527 151.0
63.003113374 173.0
63.008037221 148.0
63.012961068 141.0
63.017884915 134.0
63.022808762 148.0
63.027732609 174.0
63.032656456 145.0
63.037580304 139.0
63.042504151 160.0
63.047427998 148.0
63.052351845 128.0
63.057275692 163.0
63.062199539 155.0
63.067123386 154.0
63.072047233 136.0
63.076971080 156.0
63.081894927 137.0
63.086818774 144.0
63.091742621 148.0
63.096666468 165.0
63.101590315 153.0
63.106514162 143.0
63.111438009 143.0
63.116361856 146.0
63.121285703 137.0
63.126209550 143.0
63.131133397 147.0
63.136057244 144.0
63.140981091 145.0
63.145904938 157.0
63.150828786 145.0
63.155752633 147.0
63.160676480 143.0
63.165600327 123.0
63.170524174 166.0
63.175448021 141.0
63.180371868 132.0
63.185295715 142.0
63.190219562 128.0
63.195143409 146.0
63.200067256 136.0
63.204991103 141.0
63.209914950 129.0
63.214838797 148.0
63.219762644 154.0
63.224686491 133.0
63.229610338 149.0
63.234534185 155.0
63.239458032 155.0
63.244381879 157.0
63.249305726 142.0
63.254229573 132.0
63.259153420 147.0
63.264077267 155.0
63.269001115 150.0
63.273924962 158.0
63.278848809 139.0
63.283772656 138.0
63.288696503 172.0
63.293620350 152.0
63.298544197 141.0
63.303468044 166.0
63.308391891 167.0
63.313315738 156.0
63.318239585 158.0
63.323163432 147.0
63.328087279 147.0
63.333011126 138.0
63.337934973 157.0
63.342858820 138.0
63.347782667 151.0
63.352706514 149.0
63.357630361 150.0
63.362554208 136.0
63.367478055 159.0
63.372401902 137.0
63.377325749 144.0
63.382249597 153.0
63.387173444 141.0
63.392097291 150.0
63.397021138 152.0
63.401944985 152.0
63.406868832 135.0
63.411792679 167.0
63.416716526 156.0
63.421640373 162.0
63.426564220 165.0
63.431488067 138.0
63.436411914 149.0
63.441335761 154.0
63.446259608 164.0
63.451183455 147.0
63.456107302 147.0
63.461031149 140.0
63.465954996 145.0
63.470878843 175.0
63.475802690 174.0
63.480726537 139.0
63.485650384 175.0
63.490574231 149.0
63.495498078 160.0
63.500421926 145.0
63.505345773 159.0
63.510269620 138.0
63.515193467 154.0
63.520117314 153.0
63.525041161 173.0
63.529965008 144.0
63.534888855 157.0
63.539812702 160.0
63.544736549 182.0
63.549660396 135.0
63.554584243 158.0
63.559508090 155.0
63.564431937 143.0
63.569355784 150.0
63.574279631 153.0
63.579203478 165.0
63.584127325 141.0
63.589051172 164.0
63.593975019 159.0
63.598898866 162.0
63.603822713 158.0
63.608746560 163.0
63.613670408 137.0
63.618594255 161.0
63.623518102 151.0
63.628441949 148.0
63.633365796 170.0
63.638289643 148.0
63.643213490 154.0
63.648137337 145.0
63.653061184 156.0
63.657985031 149.0
63.662908878 159.0
63.667832725 154.0
63.672756572 164.0
63.677680419 176.0
63.682604266 151.0
63.687528113 172.0
63.692451960 160.0
63.697375807 140.0
63.702299654 164.0
63.707223501 164.0
63.712147348 173.0
63.717071195 160.0
63.721995042 138.0
63.726918889 165.0
63.731842737 142.0
63.736766584 170.0
63.741690431 155.0
63.746614278 170.0
63.751538125 163.0
63.756461972 175.0
63.761385819 181.0
63.766309666 144.0
63.771233513 153.0
63.776157360 169.0
63.781081207 176.0
63.786005054 172.0
63.790928901 159.0
63.795852748 152.0
63.800776595 165.0
63.805700442 181.0
63.810624289 169.0
63.815548136 157.0
63.820471983 159.0
63.825395830 167.0
63.830319677 141.0
63.835243524 158.0
63.840167371 177.0
63.845091219 133.0
63.850015066 157.0
63.854938913 174.0
63.859862760 170.0
63.864786607 146.0
63.869710454 164.0
63.874634301 158.0
63.879558148 180.0
63.884481995 181.0
63.889405842 153.0
63.894329689 176.0
63.899253536 180.0
63.904177383 176.0
63.909101230 149.0
63.914025077 188.0
63.918948924 148.0
63.923872771 157.0
63.928796618 172.0
63.933720465 173.0
63.938644312 193.0
63.943568159 169.0
63.948492006 203.0
63.953415853 174.0
63.958339700 172.0
63.963263548 177.0
63.968187395 162.0
63.973111242 172.0
63.978035089 188.0
63.982958936 161.0
63.987882783 155.0
63.992806630 151.0
63.997730477 171.0
64.002654324 174.0
64.007578171 171.0
64.012502018 195.0
64.017425865 193.0
64.022349712 194.0
64.027273559 187.0
64.032197406 193.0
64.037121253 166.0
64.042045100 195.0
64.046968947 204.0
64.051892794 179.0
64.056816641 178.0
64.061740488 172.0
64.066664335 179.0
64.071588182 204.0
64.076512030 174.0
64.081435877 186.0
64.086359724 192.0
64.091283571 180.0
64.096207418 173.0
64.101131265 186.0
64.106055112 212.0
64.110978959 179.0
64.115902806 182.0
64.120826653 173.0
64.125750500 218.0
64.130674347 172.0
64.135598194 206.0
64.140522041 195.0
64.145445888 186.0
64.150369735 194.0
64.155293582 181.0
64.160217429 190.0
64.165141276 212.0
64.170065123 194.0
64.174988970 183.0
64.179912817 191.0
64.184836664 188.0
64.189760511 189.0
64.194684359 172.0
64.199608206 191.0
64.204532053 213.0
64.209455900 208.0
64.214379747 178.0
64.219303594 240.0
64.224227441 227.0
64.229151288 216.0
64.234075135 214.0
64.238998982 210.0
64.243922829 203.0
64.248846676 215.0
64.253770523 198.0
64.258694370 205.0
64.263618217 242.0
64.268542064 214.0
64.273465911 202.0
64.278389758 243.0
64.283313605 238.0
64.288237452 243.0
64.293161299 242.0
64.298085146 223.0
64.303008993 209.0
64.307932841 211.0
64.312856688 260.0
64.317780535 248.0
64.322704382 204.0
64.327628229 238.0
64.332552076 237.0
64.337475923 228.0
64.342399770 272.0
64.347323617 238.0
64.352247464 242.0
64.357171311 229.0
64.362095158 235.0
64.367019005 257.0
64.371942852 237.0
64.376866699 247.0
64.381790546 257.0
64.386714393 241.0
64.391638240 259.0
64.396562087 273.0
64.401485934 280.0
64.406409781 234.0
64.411333628 260.0
64.416257475 266.0
64.421181322 279.0
64.426105170 303.0
64.431029017 305.0
64.435952864 287.0
64.440876711 298.0
64.445800558 298.0
64.450724405 340.0
64.455648252 346.0
64.460572099 297.0
64.465495946 311.0
64.470419793 307.0
64.475343640 343.0
64.480267487 323.0
64.485191334 367.0
64.490115181 343.0
64.495039028 358.0
64.499962875 347.0
64.504886722 398.0
64.509810569 393.0
64.514734416 392.0
64.519658263 393.0
64.524582110 388.0
64.529505957 425.0
64.534429804 387.0
64.539353652 388.0
64.544277499 415.0
64.549201346 417.0
64.554125193 406.0
64.559049040 428.0
64.563972887 469.0
64.568896734 444.0
64.573820581 482.0
64.578744428 489.0
64.583668275 494.0
64.588592122 517.0
64.593515969 513.0
64.598439816 516.0
64.603363663 536.0
64.608287510 566.0
64.613211357 557.0
64.618135204 594.0
64.623059051 566.0
64.627982898 614.0
64.632906745 578.0
64.637830592 608.0
64.642754439 633.0
64.647678286 644.0
64.652602133 714.0
64.657525981 702.0
64.662449828 721.0
64.667373675 709.0
64.672297522 743.0
64.677221369 775.0
64.682145216 803.0
64.687069063 860.0
64.691992910 829.0
64.696916757 906.0
64.701840604 829.0
64.706764451 918.0
64.711688298 940.0
64.716612145 979.0
64.721535992 1047.0
64.726459839 1033.0
64.731383686 1080.0
64.736307533 1119.0
64.741231380 1092.0
64.746155227 1184.0
64.751079074 1280.0
64.756002921 1228.0
64.760926768 1368.0
64.765850615 1384.0
64.770774463 1465.0
64.775698310 1504.0
64.780622157 1522.0
64.785546004 1553.0
64.790469851 1629.0
64.795393698 1737.0
64.800317545 1727.0
64.805241392 1828.0
64.810165239 1953.0
64.815089086 1951.0
64.820012933 2042.0
64.824936780 2099.0
64.829860627 2193.0
64.834784474 2194.0
64.839708321 2296.0
64.844632168 2329.0
64.849556015 2309.0
64.854479862 2434.0
64.859403709 2452.0
64.864327556 2581.0
64.869251403 2655.0
64.874175250 2707.0
64.879099097 2700.0
64.884022944 2736.0
64.888946792 2770.0
64.893870639 2832.0
64.898794486 2849.0
64.903718333 2907.0
64.908642180 2979.0
64.913566027 3037.0
64.918489874 3081.0
64.923413721 3128.0
64.928337568 3150.0
64.933261415 3233.0
64.938185262 3191.0
64.943109109 3199.0
64.948032956 3176.0
64.952956803 3267.0
64.957880650 3146.0
64.962804497 3139.0
64.967728344 3216.0
64.972652191 3209.0
64.977576038 3310.0
64.982499885 3198.0
64.987423732 3251.0
64.992347579 3225.0
64.997271426 3103.0
65.002195274 3096.0
65.007119121 3039.0
65.012042968 3025.0
65.016966815 3037.0
65.021890662 3054.0
65.026814509 2919.0
65.031738356 2966.0
65.036662203 2901.0
65.041586050 2938.0
65.046509897 2776.0
65.051433744 2879.0
65.056357591 2859.0
65.061281438 2822.0
65.066205285 2654.0
65.071129132 2739.0
65.076052979 2749.0
65.080976826 2648.0
65.085900673 2591.0
65.090824520 2616.0
65.095748367 2514.0
65.100672214 2476.0
65.105596061 2419.0
65.110519908 2425.0
65.115443756 2384.0
65.120367603 2334.0
65.125291450 2308.0
65.130215297 2215.0
65.135139144 2168.0
65.140062991 2155.0
65.144986838 2079.0
65.149910685 2134.0
65.154834532 1977.0
65.159758379 1955.0
65.164682226 1857.0
65.169606073 1951.0
65.174529920 1808.0
65.179453767 1757.0
65.184377614 1707.0
65.189301461 1689.0
65.194225308 1631.0
65.199149155 1558.0
65.204073002 1637.0
65.208996849 1515.0
65.213920696 1471.0
65.218844543 1404.0
65.223768390 1419.0
65.228692237 1307.0
65.233616085 1342.0
65.238539932 1326.0
65.243463779 1255.0
65.248387626 1161.0
65.253311473 1214.0
65.258235320 1102.0
65.263159167 1093.0
65.268083014 1053.0
65.273006861 1019.0
65.277930708 1007.0
65.282854555 982.0
65.287778402 876.0
65.292702249 904.0
65.297626096 783.0
65.302549943 871.0
65.307473790 800.0
65.312397637 827.0
65.317321484 796.0
65.322245331 719.0
65.327169178 750.0
65.332093025 701.0
65.337016872 704.0
65.341940719 716.0
65.346864567 718.0
65.351788414 688.0
65.356712261 662.0
65.361636108 619.0
65.366559955 623.0
65.371483802 588.0
65.376407649 591.0
65.381331496 601.0
65.386255343 538.0
65.391179190 550.0
65.396103037 548.0
65.401026884 510.0
65.405950731 482.0
65.410874578 498.0
65.415798425 499.0
65.420722272 492.0
65.425646119 501.0
65.430569966 502.0
65.435493813 452.0
65.440417660 441.0
65.445341507 400.0
65.450265354 400.0
65.455189201 405.0
65.460113048 395.0
65.465036896 418.0
65.469960743 417.0
65.474884590 442.0
65.479808437 377.0
65.484732284 384.0
65.489656131 351.0
65.494579978 359.0
65.499503825 400.0
65.504427672 350.0
65.509351519 355.0
65.514275366 372.0
65.519199213 348.0
65.524123060 329.0
65.529046907 355.0
65.533970754 374.0
65.538894601 329.0
65.543818448 346.0
65.548742295 349.0
65.553666142 352.0
65.558589989 329.0
65.563513836 326.0
65.568437683 322.0
65.573361530 320.0
65.578285378 315.0
65.583209225 294.0
65.588133072 291.0
65.593056919 313.0
65.597980766 280.0
65.602904613 281.0
65.607828460 244.0
65.612752307 274.0
65.617676154 283.0
65.622600001 281.0
65.627523848 304.0
65.632447695 304.0
65.637371542 239.0
65.642295389 294.0
65.647219236 294.0
65.652143083 284.0
65.657066930 283.0
65.661990777 306.0
65.666914624 238.0
65.671838471 272.0
65.676762318 275.0
65.681686165 273.0
65.686610012 246.0
65.691533859 300.0
65.696457707 276.0
65.701381554 227.0
65.706305401 265.0
65.711229248 238.0
65.716153095 241.0
65.721076942 238.0
65.726000789 229.0
65.730924636 266.0
65.735848483 237.0
65.740772330 224.0
65.745696177 270.0
65.750620024 273.0
65.755543871 278.0
65.760467718 266.0
65.765391565 217.0
65.770315412 228.0
65.775239259 237.0
65.780163106 264.0
65.785086953 235.0
65.790010800 263.0
65.794934647 273.0
65.799858494 222.0
65.804782341 261.0
65.809706189 235.0
65.814630036 220.0
65.819553883 261.0
65.824477730 273.0
65.829401577 256.0
65.834325424 264.0
65.839249271 259.0
65.844173118 239.0
65.849096965 233.0
65.854020812 215.0
65.858944659 271.0
65.863868506 260.0
65.868792353 255.0
65.873716200 239.0
65.878640047 266.0
65.883563894 262.0
65.888487741 260.0
65.893411588 226.0
65.898335435 271.0
65.903259282 268.0
65.908183129 232.0
65.913106976 260.0
65.918030823 219.0
65.922954670 284.0
65.927878518 228.0
65.932802365 255.0
65.937726212 227.0
65.942650059 300.0
65.947573906 271.0
65.952497753 222.0
65.957421600 219.0
65.962345447 227.0
65.967269294 240.0
65.972193141 260.0
65.977116988 279.0
65.982040835 220.0
65.986964682 204.0
65.991888529 264.0
65.996812376 265.0
66.001736223 275.0
66.006660070 263.0
66.011583917 260.0
66.016507764 265.0
66.021431611 276.0
66.026355458 272.0
66.031279305 224.0
66.036203152 269.0
66.041127000 282.0
66.046050847 230.0
66.050974694 260.0
66.055898541 226.0
66.060822388 273.0
66.065746235 257.0
66.070670082 256.0
66.075593929 266.0
66.080517776 268.0
66.085441623 235.0
66.090365470 234.0
66.095289317 269.0
66.100213164 236.0
66.105137011 228.0
66.110060858 273.0
66.114984705 259.0
66.119908552 265.0
66.124832399 224.0
66.129756246 233.0
66.134680093 267.0
66.139603940 277.0
66.144527787 228.0
66.149451634 289.0
66.154375481 269.0
66.159299329 283.0
66.164223176 269.0
66.169147023 228.0
66.174070870 283.0
66.178994717 279.0
66.183918564 209.0
66.188842411 283.0
66.193766258 275.0
66.198690105 264.0
66.203613952 232.0
66.208537799 308.0
66.213461646 273.0
66.218385493 288.0
66.223309340 271.0
66.228233187 218.0
66.233157034 264.0
66.238080881 266.0
66.243004728 288.0
66.247928575 309.0
66.252852422 267.0
66.257776269 301.0
66.262700116 259.0
66.267623963 270.0
66.272547811 298.0
66.277471658 266.0
66.282395505 280.0
66.287319352 287.0
66.292243199 286.0
66.297167046 259.0
66.302090893 273.0
66.307014740 281.0
66.311938587 299.0
66.316862434 292.0
66.321786281 290.0
66.326710128 278.0
66.331633975 275.0
66.336557822 288.0
66.341481669 285.0
66.346405516 299.0
66.351329363 333.0
66.356253210 304.0
66.361177057 277.0
66.366100904 302.0
66.371024751 266.0
66.375948598 287.0
66.380872445 271.0
66.385796292 306.0
66.390720140 278.0
66.395643987 310.0
66.400567834 311.0
66.405491681 301.0
66.410415528 287.0
66.415339375 306.0
66.420263222 293.0
66.425187069 327.0
66.430110916 280.0
66.435034763 301.0
66.439958610 303.0
66.444882457 327.0
66.449806304 316.0
66.454730151 324.0
66.459653998 333.0
66.464577845 330.0
66.469501692 342.0
66.474425539 301.0
66.479349386 302.0
66.484273233 295.0
66.489197080 313.0
66.494120927 321.0
66.499044774 297.0
66.503968622 374.0
66.508892469 348.0
66.513816316 321.0
66.518740163 327.0
66.523664010 354.0
66.528587857 341.0
66.533511704 329.0
66.538435551 299.0
66.543359398 331.0
66.548283245 324.0
66.553207092 365.0
66.558130939 306.0
66.563054786 310.0
66.567978633 348.0
66.572902480 344.0
66.577826327 312.0
66.582750174 332.0
66.587674021 330.0
66.592597868 320.0
66.597521715 347.0
66.602445562 357.0
66.607369409 350.0
66.612293256 315.0
66.617217103 368.0
66.622140951 356.0
66.627064798 355.0
66.631988645 350.0
66.636912492 321.0
66.641836339 359.0
66.646760186 365.0
66.651684033 374.0
66.656607880 379.0
66.661531727 364.0
66.666455574 340.0
66.671379421 369.0
66.676303268 384.0
66.681227115 353.0
66.686150962 348.0
66.691074809 380.0
66.695998656 360.0
66.700922503 392.0
66.705846350 381.0
66.710770197 386.0
66.715694044 366.0
66.720617891 380.0
66.725541738 389.0
66.730465585 381.0
66.735389433 383.0
66.740313280 433.0
66.745237127 362.0
66.750160974 399.0
66.755084821 395.0
66.760008668 414.0
66.764932515 375.0
66.769856362 376.0
66.774780209 386.0
66.779704056 350.0
66.784627903 398.0
66.789551750 432.0
66.794475597 408.0
66.799399444 393.0
66.804323291 393.0
66.809247138 398.0
66.814170985 391.0
66.819094832 385.0
66.824018679 405.0
66.828942526 391.0
66.833866373 426.0
66.838790220 402.0
66.843714067 406.0
66.848637914 422.0
66.853561762 398.0
66.858485609 421.0
66.863409456 431.0
66.868333303 435.0
66.873257150 427.0
66.878180997 462.0
66.883104844 417.0
66.888028691 454.0
66.892952538 437.0
66.897876385 428.0
66.902800232 416.0
66.907724079 420.0
66.912647926 482.0
66.917571773 391.0
66.922495620 457.0
66.927419467 424.0
66.932343314 445.0
66.937267161 452.0
66.942191008 421.0
66.947114855 456.0
66.952038702 457.0
66.956962549 407.0
66.961886396 477.0
66.966810244 469.0
66.971734091 442.0
66.976657938 441.0
66.981581785 423.0
66.986505632 439.0
66.991429479 478.0
66.996353326 468.0
67.001277173 413.0
67.006201020 459.0
67.011124867 481.0
67.016048714 455.0
67.020972561 448.0
67.025896408 481.0
67.030820255 470.0
67.035744102 498.0
67.040667949 456.0
67.045591796 488.0
67.050515643 500.0
67.055439490 493.0
67.060363337 495.0
67.065287184 450.0
67.070211031 521.0
67.075134878 493.0
67.080058725 511.0
67.084982573 506.0
67.089906420 495.0
67.094830267 489.0
67.099754114 538.0
67.104677961 506.0
67.109601808 496.0
67.114525655 491.0
67.119449502 516.0
67.124373349 516.0
67.129297196 456.0
67.134221043 482.0
67.139144890 493.0
67.144068737 501.0
67.148992584 479.0
67.153916431 528.0
67.158840278 558.0
67.163764125 526.0
67.168687972 512.0
67.173611819 572.0
67.178535666 536.0
67.183459513 503.0
67.188383360 537.0
67.193307207 573.0
67.198231055 598.0
67.203154902 538.0
67.208078749 586.0
67.213002596 514.0
67.217926443 575.0
67.222850290 522.0
67.227774137 546.0
67.232697984 585.0
67.237621831 594.0
67.242545678 557.0
67.247469525 558.0
67.252393372 562.0
67.257317219 600.0
67.262241066 627.0
67.267164913 613.0
67.272088760 596.0
67.277012607 614.0
67.281936454 607.0
67.286860301 589.0
67.291784148 582.0
67.296707995 657.0
67.301631842 609.0
67.306555689 615.0
67.311479537 650.0
67.316403384 636.0
67.321327231 645.0
67.326251078 638.0
67.331174925 638.0
67.336098772 663.0
67.341022619 620.0
67.345946466 614.0
67.350870313 653.0
67.355794160 681.0
67.360718007 641.0
67.365641854 678.0
67.370565701 651.0
67.375489548 723.0
67.380413395 672.0
67.385337242 670.0
67.390261089 698.0
67.395184936 705.0
67.400108783 699.0
67.405032630 727.0
67.409956477 672.0
67.414880324 657.0
67.419804171 684.0
67.424728018 711.0
67.429651866 715.0
67.434575713 704.0
67.439499560 697.0
67.444423407 752.0
67.449347254 764.0
67.454271101 761.0
67.459194948 767.0
67.464118795 793.0
67.469042642 758.0
67.473966489 780.0
67.478890336 790.0
67.483814183 783.0
67.488738030 785.0
67.493661877 799.0
67.498585724 766.0
67.503509571 799.0
67.508433418 821.0
67.513357265 823.0
67.518281112 855.0
67.523204959 882.0
67.528128806 871.0
67.533052653 825.0
67.537976500 863.0
67.542900348 932.0
67.547824195 883.0
67.552748042 864.0
67.557671889 833.0
67.562595736 920.0
67.567519583 915.0
67.572443430 916.0
67.577367277 991.0
67.582291124 890.0
67.587214971 942.0
67.592138818 944.0
67.597062665 954.0
67.601986512 913.0
67.606910359 964.0
67.611834206 978.0
67.616758053 1009.0
67.621681900 1003.0
67.626605747 981.0
67.631529594 1048.0
67.636453441 1058.0
67.641377288 1066.0
67.646301135 1093.0
67.651224982 1173.0
67.656148829 1094.0
67.661072677 1146.0
67.665996524 1165.0
67.670920371 1200.0
67.675844218 1286.0
67.680768065 1246.0
67.685691912 1312.0
67.690615759 1242.0
67.695539606 1335.0
67.700463453 1451.0
67.705387300 1387.0
67.710311147 1452.0
67.715234994 1472.0
67.720158841 1551.0
67.725082688 1561.0
67.730006535 1649.0
67.734930382 1748.0
67.739854229 1824.0
67.744778076 1875.0
67.749701923 2012.0
67.754625770 2130.0
67.759549617 2329.0
67.764473464 2254.0
67.769397311 2420.0
67.774321159 2541.0
67.779245006 2723.0
67.784168853 2761.0
67.789092700 2940.0
67.794016547 3130.0
67.798940394 3061.0
67.803864241 3090.0
67.808788088 3297.0
67.813711935 3386.0
67.818635782 3375.0
67.823559629 3446.0
67.828483476 3521.0
67.833407323 3673.0
67.838331170 3591.0
67.843255017 3575.0
67.848178864 3545.0
67.853102711 3570.0
67.858026558 3624.0
67.862950405 3604.0
67.867874252 3580.0
67.872798099 3529.0
67.877721946 3505.0
67.882645793 3504.0
67.887569640 3402.0
67.892493488 3461.0
67.897417335 3383.0
67.902341182 3469.0
67.907265029 3352.0
67.912188876 3525.0
67.917112723 3540.0
67.922036570 3566.0
67.926960417 3535.0
67.931884264 3645.0
67.936808111 3607.0
67.941731958 3731.0
67.946655805 3822.0
67.951579652 3997.0
67.956503499 3989.0
67.961427346 4052.0
67.966351193 4360.0
67.971275040 4556.0
67.976198887 4536.0
67.981122734 4908.0
67.986046581 5166.0
67.990970428 5368.0
67.995894275 5728.0
68.000818122 5932.0
68.005741970 6331.0
68.010665817 6689.0
68.015589664 7005.0
68.020513511 7537.0
68.025437358 8043.0
68.030361205 8375.0
68.035285052 9175.0
68.040208899 10039.0
68.045132746 10658.0
68.050056593 11972.0
68.054980440 12981.0
68.059904287 14275.0
68.064828134 15911.0
68.069751981 17262.0
68.074675828 19772.0
68.079599675 22495.0
68.084523522 26044.0
68.089447369 30263.0
68.094371216 35261.0
68.099295063 42874.0
68.104218910 53244.0
68.109142757 68468.0
68.114066604 91693.0
68.118990451 125816.0
68.123914299 170815.0
68.128838146 218338.0
68.133761993 260750.0
68.138685840 293839.0
68.143609687 315092.0
68.148533534 330098.0
68.153457381 339731.0
68.158381228 342622.0
68.163305075 340107.0
68.168228922 329629.0
68.173152769 308159.0
68.178076616 274470.0
68.183000463 227701.0
68.187924310 179947.0
68.192848157 138850.0
68.197772004 109010.0
68.202695851 85573.0
68.207619698 69152.0
68.212543545 55632.0
68.217467392 46008.0
68.222391239 38584.0
68.227315086 32603.0
68.232238933 29051.0
68.237162781 25091.0
68.242086628 23065.0
68.247010475 20999.0
68.251934322 20312.0
68.256858169 19356.0
68.261782016 19280.0
68.266705863 19329.0
68.271629710 19852.0
68.276553557 21253.0
68.281477404 22820.0
68.286401251 25624.0
68.291325098 29305.0
68.296248945 34454.0
68.301172792 42239.0
68.306096639 52595.0
68.311020486 69956.0
68.315944333 85462.0
68.320868180 110649.0
68.325792027 124557.0
68.330715874 146203.0
68.335639721 154424.0
68.340563568 166587.0
68.345487415 168298.0
68.350411262 172385.0
68.355335110 168948.0
68.360258957 164243.0
68.365182804 154152.0
68.370106651 137440.0
68.375030498 120707.0
68.379954345 96145.0
68.384878192 81607.0
68.389802039 61389.0
68.394725886 52320.0
68.399649733 38395.0
68.404573580 33357.0
68.409497427 25474.0
68.414421274 22824.0
68.419345121 18082.0
68.424268968 16810.0
68.429192815 13517.0
68.434116662 12544.0
68.439040509 10727.0
68.443964356 10126.0
68.448888203 8468.0
68.453812050 8462.0
68.458735897 7412.0
68.463659744 7312.0
68.468583592 6321.0
68.473507439 6269.0
68.478431286 5656.0
68.483355133 5652.0
68.488278980 5096.0
68.493202827 4971.0
68.498126674 4675.0
68.503050521 4602.0
68.507974368 4401.0
68.512898215 4148.0
68.517822062 4026.0
68.522745909 3777.0
68.527669756 3836.0
68.532593603 3669.0
68.537517450 3442.0
68.542441297 3333.0
68.547365144 3286.0
68.552288991 3280.0
68.557212838 3041.0
68.562136685 2979.0
68.567060532 2961.0
68.571984379 2772.0
68.576908226 2645.0
68.581832073 2702.0
68.586755921 2642.0
68.591679768 2580.0
68.596603615 2540.0
68.601527462 2251.0
68.606451309 2205.0
68.611375156 2335.0
68.616299003 2168.0
68.621222850 2259.0
68.626146697 2053.0
68.631070544 2104.0
68.635994391 2003.0
68.640918238 1954.0
68.645842085 1830.0
68.650765932 1923.0
68.655689779 1770.0
68.660613626 1728.0
68.665537473 1667.0
68.670461320 1800.0
68.675385167 1593.0
68.680309014 1690.0
68.685232861 1605.0
68.690156708 1634.0
68.695080555 1587.0
68.700004403 1555.0
68.704928250 1507.0
68.709852097 1468.0
68.714775944 1502.0
68.719699791 1505.0
68.724623638 1394.0
68.729547485 1418.0
68.734471332 1364.0
68.739395179 1341.0
68.744319026 1337.0
68.749242873 1311.0
68.754166720 1321.0
68.759090567 1296.0
68.764014414 1180.0
68.768938261 1261.0
68.773862108 1241.0
68.778785955 1232.0
68.783709802 1238.0
68.788633649 1169.0
68.793557496 1207.0
68.798481343 1154.0
68.803405190 1164.0
68.808329037 1132.0
68.813252884 1075.0
68.818176732 1075.0
68.823100579 1075.0
68.828024426 1048.0
68.832948273 1009.0
68.837872120 1026.0
68.842795967 1017.0
68.847719814 982.0
68.852643661 966.0
68.857567508 932.0
68.862491355 927.0
68.867415202 881.0
68.872339049 916.0
68.877262896 950.0
68.882186743 852.0
68.887110590 858.0
68.892034437 888.0
68.896958284 843.0
68.901882131 935.0
68.906805978 857.0
68.911729825 862.0
68.916653672 844.0
68.921577519 799.0
68.926501366 757.0
68.931425214 760.0
68.936349061 795.0
68.941272908 845.0
68.946196755 787.0
68.951120602 803.0
68.956044449 810.0
68.960968296 824.0
68.965892143 773.0
68.970815990 817.0
68.975739837 748.0
68.980663684 783.0
68.985587531 749.0
68.990511378 739.0
68.995435225 753.0
69.000359072 731.0
69.005282919 684.0
69.010206766 734.0
69.015130613 718.0
69.020054460 688.0
69.024978307 723.0
69.029902154 689.0
69.034826001 685.0
69.039749848 705.0
69.044673695 651.0
69.049597543 648.0
69.054521390 650.0
69.059445237 659.0
69.064369084 666.0
69.069292931 604.0
69.074216778 668.0
69.079140625 631.0
69.084064472 706.0
69.088988319 605.0
69.093912166 658.0
69.098836013 608.0
69.103759860 602.0
69.108683707 583.0
69.113607554 594.0
69.118531401 584.0
69.123455248 612.0
69.128379095 578.0
69.133302942 608.0
69.138226789 593.0
69.143150636 593.0
69.148074483 617.0
69.152998330 586.0
69.157922177 597.0
69.162846025 548.0
69.167769872 556.0
69.172693719 562.0
69.177617566 575.0
69.182541413 587.0
69.187465260 500.0
69.192389107 545.0
69.197312954 553.0
69.202236801 505.0
69.207160648 544.0
69.212084495 507.0
69.217008342 503.0
69.221932189 508.0
69.226856036 503.0
69.231779883 451.0
69.236703730 465.0
69.241627577 477.0
69.246551424 513.0
69.251475271 477.0
69.256399118 470.0
69.261322965 490.0
69.266246812 488.0
69.271170659 495.0
69.276094506 481.0
69.281018354 449.0
69.285942201 458.0
69.290866048 459.0
69.295789895 467.0
69.300713742 419.0
69.305637589 465.0
69.310561436 457.0
69.315485283 436.0
69.320409130 470.0
69.325332977 446.0
69.330256824 424.0
69.335180671 444.0
69.340104518 388.0
69.345028365 432.0
69.349952212 421.0
69.354876059 407.0
69.359799906 409.0
69.364723753 397.0
69.369647600 395.0
69.374571447 396.0
69.379495294 392.0
69.384419141 384.0
69.389342988 359.0
69.394266836 425.0
69.399190683 388.0
69.404114530 382.0
69.409038377 382.0
69.413962224 342.0
69.418886071 377.0
69.423809918 381.0
69.428733765 384.0
69.433657612 401.0
69.438581459 380.0
69.443505306 402.0
69.448429153 376.0
69.453353000 332.0
69.458276847 367.0
69.463200694 359.0
69.468124541 355.0
69.473048388 328.0
69.477972235 369.0
69.482896082 401.0
69.487819929 335.0
69.492743776 337.0
69.497667623 323.0
69.502591470 317.0
69.507515318 330.0
69.512439165 326.0
69.517363012 341.0
69.522286859 337.0
69.527210706 301.0
69.532134553 327.0
69.537058400 347.0
69.541982247 292.0
69.546906094 319.0
69.551829941 344.0
69.556753788 320.0
69.561677635 316.0
69.566601482 308.0
69.571525329 315.0
69.576449176 339.0
69.581373023 339.0
69.586296870 286.0
69.591220717 310.0
69.596144564 296.0
69.601068411 307.0
69.605992258 278.0
69.610916105 266.0
69.615839952 279.0
69.620763799 303.0
69.625687647 359.0
69.630611494 308.0
69.635535341 275.0
69.640459188 287.0
69.645383035 290.0
69.650306882 258.0
69.655230729 287.0
69.660154576 311.0
69.665078423 288.0
69.670002270 292.0
69.674926117 296.0
69.679849964 296.0
69.684773811 286.0
69.689697658 285.0
69.694621505 274.0
69.699545352 313.0
69.704469199 300.0
69.709393046 299.0
69.714316893 290.0
69.719240740 280.0
69.724164587 232.0
69.729088434 262.0
69.734012281 276.0
69.738936129 268.0
69.743859976 277.0
69.748783823 232.0
69.753707670 269.0
69.758631517 267.0
69.763555364 263.0
69.768479211 268.0
69.773403058 226.0
69.778326905 281.0
69.783250752 289.0
69.788174599 227.0
69.793098446 262.0
69.798022293 275.0
69.802946140 260.0
69.807869987 228.0
69.812793834 231.0
69.817717681 261.0
69.822641528 255.0
69.827565375 274.0
69.832489222 224.0
69.837413069 229.0
69.842336916 257.0
69.847260763 234.0
69.852184610 233.0
69.857108458 256.0
69.862032305 271.0
69.866956152 261.0
69.871879999 259.0
69.876803846 216.0
69.881727693 208.0
69.886651540 219.0
69.891575387 234.0
69.896499234 214.0
69.901423081 261.0
69.906346928 259.0
69.911270775 236.0
69.916194622 255.0
69.921118469 232.0
69.926042316 193.0
69.930966163 222.0
69.935890010 227.0
69.940813857 203.0
69.945737704 205.0
69.950661551 228.0
69.955585398 218.0
69.960509245 233.0
69.965433092 205.0
69.970356940 196.0
69.975280787 265.0
69.980204634 208.0
69.985128481 216.0
69.990052328 187.0
69.994976175 212.0
69.999900022 224.0
70.004823869 188.0
70.009747716 211.0
70.014671563 207.0
70.019595410 220.0
70.024519257 207.0
70.029443104 255.0
70.034366951 211.0
70.039290798 219.0
70.044214645 218.0
70.049138492 220.0
70.054062339 238.0
70.058986186 215.0
70.063910033 198.0
70.068833880 191.0
70.073757727 200.0
70.078681574 222.0
70.083605421 201.0
70.088529269 194.0
70.093453116 194.0
70.098376963 200.0
70.103300810 210.0
70.108224657 220.0
70.113148504 206.0
70.118072351 210.0
70.122996198 208.0
70.127920045 211.0
70.132843892 191.0
70.137767739 226.0
70.142691586 198.0
70.147615433 200.0
70.152539280 189.0
70.157463127 218.0
70.162386974 208.0
70.167310821 200.0
70.172234668 187.0
70.177158515 194.0
70.182082362 220.0
70.187006209 201.0
70.191930056 194.0
70.196853903 181.0
70.201777751 193.0
70.206701598 194.0
70.211625445 199.0
70.216549292 196.0
70.221473139 205.0
70.226396986 191.0
70.231320833 164.0
70.236244680 181.0
70.241168527 196.0
70.246092374 185.0
70.251016221 206.0
70.255940068 196.0
70.260863915 211.0
70.265787762 185.0
70.270711609 181.0
70.275635456 192.0
70.280559303 187.0
70.285483150 179.0
70.290406997 205.0
70.295330844 178.0
70.300254691 207.0
70.305178538 184.0
70.310102385 155.0
70.315026232 189.0
70.319950080 207.0
70.324873927 208.0
70.329797774 182.0
70.334721621 176.0
70.339645468 177.0
70.344569315 172.0
70.349493162 205.0
70.354417009 173.0
70.359340856 187.0
70.364264703 193.0
70.369188550 174.0
70.374112397 183.0
70.379036244 168.0
70.383960091 178.0
70.388883938 180.0
70.393807785 180.0
70.398731632 216.0
70.403655479 182.0
70.408579326 175.0
70.413503173 188.0
70.418427020 192.0
70.423350867 208.0
70.428274714 173.0
70.433198562 181.0
70.438122409 188.0
70.443046256 176.0
70.447970103 184.0
70.452893950 178.0
70.457817797 192.0
70.462741644 180.0
70.467665491 179.0
70.472589338 193.0
70.477513185 197.0
70.482437032 172.0
70.487360879 165.0
70.492284726 177.0
70.497208573 200.0
70.502132420 187.0
70.507056267 191.0
70.511980114 160.0
70.516903961 179.0
70.521827808 172.0
70.526751655 188.0
70.531675502 192.0
70.536599349 171.0
70.541523196 170.0
70.546447043 191.0
70.551370891 159.0
70.556294738 194.0
70.561218585 182.0
70.566142432 168.0
70.571066279 178.0
70.575990126 178.0
70.580913973 189.0
70.585837820 183.0
70.590761667 161.0
70.595685514 184.0
70.600609361 175.0
70.605533208 159.0
70.610457055 187.0
70.615380902 182.0
70.620304749 169.0
70.625228596 202.0
70.630152443 184.0
70.635076290 166.0
70.640000137 165.0
70.644923984 181.0
70.649847831 157.0
70.654771678 180.0
70.659695525 170.0
70.664619373 177.0
70.669543220 164.0
70.674467067 165.0
70.679390914 174.0
70.684314761 189.0
70.689238608 185.0
70.694162455 161.0
70.699086302 162.0
70.704010149 193.0
70.708933996 194.0
70.713857843 197.0
70.718781690 170.0
70.723705537 176.0
70.728629384 159.0
70.733553231 170.0
70.738477078 161.0
70.743400925 164.0
70.748324772 179.0
70.753248619 168.0
70.758172466 147.0
70.763096313 176.0
70.768020160 159.0
70.772944007 180.0
70.777867854 172.0
70.782791702 199.0
70.787715549 172.0
70.792639396 163.0
70.797563243 183.0
70.802487090 191.0
70.807410937 196.0
70.812334784 163.0
70.817258631 174.0
70.822182478 171.0
70.827106325 185.0
70.832030172 152.0
70.836954019 190.0
70.841877866 173.0
70.846801713 184.0
70.851725560 175.0
70.856649407 160.0
70.861573254 162.0
70.866497101 150.0
70.871420948 168.0
70.876344795 166.0
70.881268642 184.0
70.886192489 169.0
70.891116336 153.0
70.896040184 132.0
70.900964031 186.0
70.905887878 162.0
70.910811725 177.0
70.915735572 195.0
70.920659419 169.0
70.925583266 182.0
70.930507113 147.0
70.935430960 167.0
70.940354807 149.0
70.945278654 151.0
70.950202501 162.0
70.955126348 162.0
70.960050195 163.0
70.964974042 184.0
70.969897889 152.0
70.974821736 169.0
70.979745583 149.0
70.984669430 168.0
70.989593277 162.0
70.994517124 172.0
70.999440971 186.0
71.004364818 160.0
71.009288665 160.0
71.014212513 159.0
71.019136360 153.0
71.024060207 159.0
71.028984054 194.0
71.033907901 158.0
71.038831748 161.0
71.043755595 163.0
71.048679442 175.0
71.053603289 157.0
71.058527136 193.0
71.063450983 160.0
71.068374830 176.0
71.073298677 165.0
71.078222524 169.0
71.083146371 168.0
71.088070218 165.0
71.092994065 192.0
71.097917912 158.0
71.102841759 142.0
71.107765606 173.0
71.112689453 143.0
71.117613300 173.0
71.122537147 172.0
71.127460995 169.0
71.132384842 148.0
71.137308689 185.0
71.142232536 163.0
71.147156383 186.0
71.152080230 177.0
71.157004077 172.0
71.161927924 154.0
71.166851771 161.0
71.171775618 158.0
71.176699465 170.0
71.181623312 184.0
71.186547159 164.0
71.191471006 149.0
71.196394853 155.0
71.201318700 176.0
71.206242547 134.0
71.211166394 158.0
71.216090241 185.0
71.221014088 157.0
71.225937935 148.0
71.230861782 149.0
71.235785629 176.0
71.240709476 179.0
71.245633324 162.0
71.250557171 151.0
71.255481018 154.0
71.260404865 147.0
71.265328712 156.0
71.270252559 159.0
71.275176406 155.0
71.280100253 153.0
71.285024100 133.0
71.289947947 157.0
71.294871794 174.0
71.299795641 161.0
71.304719488 167.0
71.309643335 160.0
71.314567182 168.0
71.319491029 156.0
71.324414876 150.0
71.329338723 135.0
71.334262570 167.0
71.339186417 160.0
71.344110264 172.0
71.349034111 139.0
71.353957958 160.0
71.358881806 174.0
71.363805653 149.0
71.368729500 180.0
71.373653347 155.0
71.378577194 138.0
71.383501041 179.0
71.388424888 161.0
71.393348735 143.0
71.398272582 183.0
71.403196429 134.0
71.408120276 144.0
71.413044123 176.0
71.417967970 169.0
71.422891817 161.0
71.427815664 156.0
71.432739511 155.0
71.437663358 160.0
71.442587205 151.0
71.447511052 171.0
71.452434899 170.0
71.457358746 152.0
71.462282593 154.0
71.467206440 141.0
71.472130287 186.0
71.477054135 159.0
71.481977982 147.0
71.486901829 174.0
71.491825676 178.0
71.496749523 178.0
71.501673370 153.0
71.506597217 131.0
71.511521064 159.0
71.516444911 145.0
71.521368758 157.0
71.526292605 157.0
71.531216452 159.0
71.536140299 144.0
71.541064146 139.0
71.545987993 151.0
71.550911840 149.0
71.555835687 157.0
71.560759534 159.0
71.565683381 160.0
71.570607228 165.0
71.575531075 156.0
71.580454922 178.0
71.585378769 141.0
71.590302617 135.0
71.595226464 176.0
71.600150311 155.0
71.605074158 149.0
71.609998005 132.0
71.614921852 158.0
71.619845699 163.0
71.624769546 148.0
71.629693393 158.0
71.634617240 168.0
71.639541087 155.0
71.644464934 171.0
71.649388781 153.0
71.654312628 153.0
71.659236475 161.0
71.664160322 161.0
71.669084169 151.0
71.674008016 166.0
71.678931863 143.0
71.683855710 155.0
71.688779557 159.0
71.693703404 143.0
71.698627251 153.0
71.703551099 130.0
71.708474946 145.0
71.713398793 157.0
71.718322640 141.0
71.723246487 162.0
71.728170334 176.0
71.733094181 127.0
71.738018028 177.0
71.742941875 169.0
71.747865722 181.0
71.752789569 161.0
71.757713416 159.0
71.762637263 131.0
71.767561110 128.0
71.772484957 140.0
71.777408804 155.0
71.782332651 140.0
71.787256498 164.0
71.792180345 146.0
71.797104192 155.0
71.802028039 124.0
71.806951886 146.0
71.811875733 162.0
71.816799580 152.0
71.821723428 150.0
71.826647275 138.0
71.831571122 128.0
71.836494969 163.0
71.841418816 147.0
71.846342663 154.0
71.851266510 171.0
71.856190357 156.0
71.861114204 169.0
71.866038051 157.0
71.870961898 154.0
71.875885745 158.0
71.880809592 148.0
71.885733439 161.0
71.890657286 153.0
71.895581133 141.0
71.900504980 161.0
71.905428827 164.0
71.910352674 149.0
71.915276521 164.0
71.920200368 136.0
71.925124215 155.0
71.930048062 131.0
71.934971910 144.0
71.939895757 141.0
71.944819604 149.0
71.949743451 149.0
71.954667298 157.0
71.959591145 127.0
71.964514992 168.0
71.969438839 151.0
71.974362686 133.0
71.979286533 136.0
71.984210380 144.0
71.989134227 149.0
71.994058074 147.0
71.998981921 147.0
72.003905768 153.0
72.008829615 141.0
72.013753462 142.0
72.018677309 163.0
72.023601156 162.0
72.028525003 139.0
72.033448850 135.0
72.038372697 128.0
72.043296544 151.0
72.048220391 137.0
72.053144239 151.0
72.058068086 163.0
72.062991933 136.0
72.067915780 133.0
72.072839627 134.0
72.077763474 148.0
72.082687321 134.0
72.087611168 161.0
72.092535015 139.0
72.097458862 136.0
72.102382709 159.0
72.107306556 136.0
72.112230403 154.0
72.117154250 148.0
72.122078097 136.0
72.127001944 129.0
72.131925791 176.0
72.136849638 131.0
72.141773485 163.0
72.146697332 158.0
72.151621179 134.0
72.156545026 153.0
72.161468873 160.0
72.166392721 123.0
72.171316568 130.0
72.176240415 164.0
72.181164262 133.0
72.186088109 135.0
72.191011956 146.0
72.195935803 139.0
72.200859650 145.0
72.205783497 147.0
72.210707344 162.0
72.215631191 154.0
72.220555038 128.0
72.225478885 128.0
72.230402732 149.0
72.235326579 163.0
72.240250426 146.0
72.245174273 153.0
72.250098120 148.0
72.255021967 158.0
72.259945814 135.0
72.264869661 127.0
72.269793508 130.0
72.274717355 141.0
72.279641202 168.0
72.284565050 134.0
72.289488897 163.0
72.294412744 161.0
72.299336591 150.0
72.304260438 163.0
72.309184285 174.0
72.314108132 147.0
72.319031979 151.0
72.323955826 148.0
72.328879673 167.0
72.333803520 155.0
72.338727367 145.0
72.343651214 148.0
72.348575061 157.0
72.353498908 151.0
72.358422755 114.0
72.363346602 152.0
72.368270449 136.0
72.373194296 149.0
72.378118143 150.0
72.383041990 168.0
72.387965837 152.0
72.392889684 135.0
72.397813532 167.0
72.402737379 153.0
72.407661226 148.0
72.412585073 133.0
72.417508920 158.0
72.422432767 136.0
72.427356614 140.0
72.432280461 130.0
72.437204308 146.0
72.442128155 154.0
72.447052002 145.0
72.451975849 164.0
72.456899696 133.0
72.461823543 128.0
72.466747390 137.0
72.471671237 119.0
72.476595084 150.0
72.481518931 146.0
72.486442778 151.0
72.491366625 128.0
72.496290472 144.0
72.501214319 141.0
72.506138166 142.0
72.511062013 132.0
72.515985861 156.0
72.520909708 145.0
72.525833555 161.0
72.530757402 158.0
72.535681249 135.0
72.540605096 131.0
72.545528943 131.0
72.550452790 130.0
72.555376637 133.0
72.560300484 139.0
72.565224331 134.0
72.570148178 143.0
72.575072025 133.0
72.579995872 156.0
72.584919719 159.0
72.589843566 125.0
72.594767413 167.0
72.599691260 133.0
72.604615107 136.0
72.609538954 133.0
72.614462801 164.0
72.619386648 152.0
72.624310495 138.0
72.629234343 164.0
72.634158190 140.0
72.639082037 175.0
72.644005884 148.0
72.648929731 149.0
72.653853578 140.0
72.658777425 141.0
72.663701272 141.0
72.668625119 154.0
72.673548966 142.0
72.678472813 136.0
72.683396660 132.0
72.688320507 145.0
72.693244354 150.0
72.698168201 134.0
72.703092048 124.0
72.708015895 173.0
72.712939742 145.0
72.717863589 161.0
72.722787436 149.0
72.727711283 145.0
72.732635130 123.0
72.737558977 148.0
72.742482824 130.0
72.747406672 149.0
72.752330519 149.0
72.757254366 146.0
72.762178213 131.0
72.767102060 146.0
72.772025907 154.0
72.776949754 130.0
72.781873601 147.0
72.786797448 127.0
72.791721295 160.0
72.796645142 136.0
72.801568989 142.0
72.806492836 147.0
72.811416683 147.0
72.816340530 140.0
72.821264377 123.0
72.826188224 140.0
72.831112071 147.0
72.836035918 134.0
72.840959765 150.0
72.845883612 161.0
72.850807459 139.0
72.855731306 148.0
72.860655154 137.0
72.865579001 169.0
72.870502848 146.0
72.875426695 148.0
72.880350542 142.0
72.885274389 150.0
72.890198236 125.0
72.895122083 123.0
72.900045930 147.0
72.904969777 127.0
72.909893624 154.0
72.914817471 126.0
72.919741318 138.0
72.924665165 137.0
72.929589012 134.0
72.934512859 140.0
72.939436706 109.0
72.944360553 137.0
72.949284400 140.0
72.954208247 136.0
72.959132094 132.0
72.964055941 154.0
72.968979788 139.0
72.973903635 140.0
72.978827483 137.0
72.983751330 150.0
72.988675177 152.0
72.993599024 157.0
72.998522871 148.0
73.003446718 138.0
73.008370565 149.0
73.013294412 147.0
73.018218259 134.0
73.023142106 135.0
73.028065953 135.0
73.032989800 146.0
73.037913647 148.0
73.042837494 156.0
73.047761341 135.0
73.052685188 143.0
73.057609035 143.0
73.062532882 121.0
73.067456729 152.0
73.072380576 153.0
73.077304423 143.0
73.082228270 145.0
73.087152117 133.0
73.092075965 130.0
73.096999812 137.0
73.101923659 129.0
73.106847506 158.0
73.111771353 145.0
73.116695200 139.0
73.121619047 150.0
73.126542894 128.0
73.131466741 160.0
73.136390588 147.0
73.141314435 138.0
73.146238282 140.0
73.151162129 132.0
73.156085976 153.0
73.161009823 151.0
73.165933670 146.0
73.170857517 155.0
73.175781364 146.0
73.180705211 128.0
73.185629058 151.0
73.190552905 114.0
73.195476752 131.0
73.200400599 147.0
73.205324446 141.0
73.210248294 143.0
73.215172141 103.0
73.220095988 146.0
73.225019835 194.0
73.229943682 153.0
73.234867529 141.0
73.239791376 150.0
73.244715223 130.0
73.249639070 146.0
73.254562917 141.0
73.259486764 134.0
73.264410611 160.0
73.269334458 151.0
73.274258305 135.0
73.279182152 153.0
73.284105999 140.0
73.289029846 137.0
73.293953693 145.0
73.298877540 163.0
73.303801387 137.0
73.308725234 139.0
73.313649081 174.0
73.318572928 138.0
73.323496776 132.0
73.328420623 133.0
73.333344470 152.0
73.338268317 123.0
73.343192164 118.0
73.348116011 123.0
73.353039858 136.0
73.357963705 109.0
73.362887552 156.0
73.367811399 143.0
73.372735246 147.0
73.377659093 131.0
73.382582940 160.0
73.387506787 148.0
73.392430634 137.0
73.397354481 153.0
73.402278328 132.0
73.407202175 143.0
73.412126022 175.0
73.417049869 136.0
73.421973716 161.0
73.426897563 148.0
73.431821410 123.0
73.436745257 149.0
73.441669105 141.0
73.446592952 163.0
73.451516799 138.0
73.456440646 136.0
73.461364493 136.0
73.466288340 149.0
73.471212187 142.0
73.476136034 136.0
73.481059881 137.0
73.485983728 121.0
73.490907575 152.0
73.495831422 152.0
73.500755269 162.0
73.505679116 128.0
73.510602963 133.0
73.515526810 142.0
73.520450657 152.0
73.525374504 143.0
73.530298351 120.0
73.535222198 131.0
73.540146045 134.0
73.545069892 152.0
73.549993739 133.0
73.554917587 135.0
73.559841434 168.0
73.564765281 132.0
73.569689128 135.0
73.574612975 127.0
73.579536822 150.0
73.584460669 144.0
73.589384516 145.0
73.594308363 141.0
73.599232210 124.0
73.604156057 163.0
73.609079904 142.0
73.614003751 129.0
73.618927598 144.0
73.623851445 134.0
73.628775292 143.0
73.633699139 167.0
73.638622986 139.0
73.643546833 152.0
73.648470680 144.0
73.653394527 130.0
73.658318374 139.0
73.663242221 142.0
73.668166068 124.0
73.673089916 148.0
73.678013763 124.0
73.682937610 141.0
73.687861457 139.0
73.692785304 143.0
73.697709151 147.0
73.702632998 132.0
73.707556845 124.0
73.712480692 151.0
73.717404539 144.0
73.722328386 157.0
73.727252233 157.0
73.732176080 138.0
73.737099927 123.0
73.742023774 135.0
73.746947621 124.0
73.751871468 144.0
73.756795315 137.0
73.761719162 144.0
73.766643009 134.0
73.771566856 121.0
73.776490703 126.0
73.781414550 151.0
73.786338398 133.0
73.791262245 138.0
73.796186092 152.0
73.801109939 139.0
73.806033786 133.0
73.810957633 126.0
73.815881480 133.0
73.820805327 121.0
73.825729174 119.0
73.830653021 136.0
73.835576868 159.0
73.840500715 141.0
73.845424562 126.0
73.850348409 143.0
73.855272256 132.0
73.860196103 138.0
73.865119950 136.0
73.870043797 122.0
73.874967644 133.0
73.879891491 143.0
73.884815338 142.0
73.889739185 148.0
73.894663032 142.0
73.899586880 158.0
73.904510727 128.0
73.909434574 136.0
73.914358421 153.0
73.919282268 134.0
73.924206115 132.0
73.929129962 118.0
73.934053809 140.0
73.938977656 109.0
73.943901503 129.0
73.948825350 148.0
73.953749197 140.0
73.958673044 137.0
73.963596891 151.0
73.968520738 149.0
73.973444585 149.0
73.978368432 146.0
73.983292279 132.0
73.988216126 128.0
73.993139973 145.0
73.998063820 137.0
74.002987667 132.0
74.007911514 154.0
74.012835361 130.0
74.017759209 139.0
74.022683056 150.0
74.027606903 134.0
74.032530750 141.0
74.037454597 120.0
74.042378444 136.0
74.047302291 147.0
74.052226138 129.0
74.057149985 145.0
74.062073832 133.0
74.066997679 150.0
74.071921526 118.0
74.076845373 161.0
74.081769220 123.0
74.086693067 162.0
74.091616914 135.0
74.096540761 124.0
74.101464608 116.0
74.106388455 159.0
74.111312302 145.0
74.116236149 144.0
74.121159996 143.0
74.126083843 125.0
74.131007691 128.0
74.135931538 160.0
74.140855385 136.0
74.145779232 128.0
74.150703079 172.0
74.155626926 130.0
74.160550773 138.0
74.165474620 143.0
74.170398467 157.0
74.175322314 140.0
74.180246161 144.0
74.185170008 148.0
74.190093855 127.0
74.195017702 160.0
74.199941549 145.0
74.204865396 146.0
74.209789243 141.0
74.214713090 128.0
74.219636937 141.0
74.224560784 145.0
74.229484631 150.0
74.234408478 138.0
74.239332325 136.0
74.244256172 128.0
74.249180020 155.0
74.254103867 137.0
74.259027714 121.0
74.263951561 133.0
74.268875408 164.0
74.273799255 133.0
74.278723102 152.0
74.283646949 137.0
74.288570796 141.0
74.293494643 130.0
74.298418490 145.0
74.303342337 137.0
74.308266184 149.0
74.313190031 136.0
74.318113878 160.0
74.323037725 144.0
74.327961572 144.0
74.332885419 128.0
74.337809266 141.0
74.342733113 142.0
74.347656960 143.0
74.352580807 136.0
74.357504654 163.0
74.362428502 147.0
74.367352349 135.0
74.372276196 161.0
74.377200043 134.0
74.382123890 125.0
74.387047737 119.0
74.391971584 156.0
74.396895431 134.0
74.401819278 141.0
74.406743125 136.0
74.411666972 140.0
74.416590819 146.0
74.421514666 129.0
74.426438513 158.0
74.431362360 155.0
74.436286207 131.0
74.441210054 120.0
74.446133901 142.0
74.451057748 113.0
74.455981595 125.0
74.460905442 125.0
74.465829289 137.0
74.470753136 158.0
74.475676983 125.0
74.480600831 135.0
74.485524678 119.0
74.490448525 169.0
74.495372372 107.0
74.500296219 145.0
74.505220066 141.0
74.510143913 142.0
74.515067760 141.0
74.519991607 156.0
74.524915454 137.0
74.529839301 150.0
74.534763148 136.0
74.539686995 142.0
74.544610842 129.0
74.549534689 147.0
74.554458536 131.0
74.559382383 143.0
74.564306230 124.0
74.569230077 131.0
74.574153924 127.0
74.579077771 126.0
74.584001618 151.0
74.588925465 153.0
74.593849313 132.0
74.598773160 127.0
74.603697007 121.0
74.608620854 145.0
74.613544701 158.0
74.618468548 155.0
74.623392395 141.0
74.628316242 130.0
74.633240089 129.0
74.638163936 142.0
74.643087783 153.0
74.648011630 155.0
74.652935477 135.0
74.657859324 113.0
74.662783171 150.0
74.667707018 130.0
74.672630865 138.0
74.677554712 135.0
74.682478559 139.0
74.687402406 152.0
74.692326253 135.0
74.697250100 149.0
74.702173947 155.0
74.707097794 143.0
74.712021642 123.0
74.716945489 148.0
74.721869336 156.0
74.726793183 132.0
74.731717030 151.0
74.736640877 133.0
74.741564724 155.0
74.746488571 136.0
74.751412418 144.0
74.756336265 149.0
74.761260112 135.0
74.766183959 130.0
74.771107806 136.0
74.776031653 144.0
74.780955500 130.0
74.785879347 127.0
74.790803194 145.0
74.795727041 149.0
74.800650888 163.0
74.805574735 157.0
74.810498582 131.0
74.815422429 139.0
74.820346276 141.0
74.825270124 152.0
74.830193971 132.0
74.835117818 139.0
74.840041665 143.0
74.844965512 146.0
74.849889359 120.0
74.854813206 145.0
74.859737053 146.0
74.864660900 152.0
74.869584747 140.0
74.874508594 155.0
74.879432441 133.0
74.884356288 126.0
74.889280135 150.0
74.894203982 150.0
74.899127829 148.0
74.904051676 162.0
74.908975523 124.0
74.913899370 116.0
74.918823217 128.0
74.923747064 131.0
74.928670911 143.0
74.933594758 166.0
74.938518605 120.0
74.943442453 143.0
74.948366300 156.0
74.953290147 130.0
74.958213994 136.0
74.963137841 138.0
74.968061688 127.0
74.972985535 138.0
74.977909382 140.0
74.982833229 121.0
74.987757076 147.0
74.992680923 140.0
74.997604770 144.0
